Frequency,Nominal,Min,Max
247.48737341529164,0.00008260340635152472,0.00007765491154723822,0.00008763408254909749
252.48762345905195,0.00008261171804285555,0.00007766327136118129,0.00008764254075024833
257.48786379167467,0.00008261983409610634,0.00007767138486242566,0.00008765084984684146
264.9528259898354,0.00008263166685313714,0.00007768311949233319,0.00008766305930605465
272.48853186877426,0.00008264320280466415,0.0000776944692947165,0.00008767505381849147
277.48873851023217,0.00008265072207602154,0.00007770180951940559,0.00008768293023091322
282.4889378365107,0.00008265813061988632,0.00007770900030994431,0.00008769073238720627
287.489130229301,0.0000826654412047178,0.00007771605622935976,0.000087698471548855
292.4893160441933,0.0000826726655215682,0.0000777229906097857,0.0000877061580291659
297.4894956128703,0.00008267981429187773,0.00007772981567576402,0.00008771380128815716
302.48966924508346,0.00008268689736279677,0.00007773654265316626,0.00008772141001678379
307.48983723043597,0.0000826939237920527,0.00007774318186597624,0.00008772899221121727
312.4899998399949,0.0000827009019231286,0.00007774974282212768,0.0000877365552394432
317.49015732775086,0.00008270783945226241,0.0000777562342902001,0.00008774410590000576
324.96153618543843,0.00008271818204752352,0.00007776585245480455,0.00008775542262548294
334.9626844888845,0.00008273189744923841,0.00007777851407409637,0.00008777052394887496
344.9637662132068,0.00008274556221575357,0.00007779102499709702,0.00008778567463873888
354.96478698597696,0.00008275921544811322,0.00007780342969578289,0.00008780090932330465
364.9657518178932,0.0000827728910367696,0.00007781576668588179,0.00008781625805074507
379.86839826445157,0.00008279352104082636,0.00007783421838764435,0.00008783957308529071
394.96835316262997,0.00008281432900802122,0.0000778526858548864,0.00008786323464032888
404.96913462633177,0.00008282835468664305,0.00007786504769862412,0.00008787927128544616
414.9698784249286,0.00008284251829080195,0.00007787747278757038,0.00008789552488636062
425.9577443831724,0.00008285827932366455,0.00007789123628396748,0.00008791367565945055
438.45182175468267,0.00008287643722489967,0.00007790702122795021,0.00008793465969259855
451.45320909259243,0.00008289562499412388,0.00007792362771319485,0.00008795690910792807
466.42255520075355,0.00008291819226804921,0.0000779430722072929,0.00008798316606222098
481.45612468842893,0.00008294121474065275,0.00007796283067906554,0.00008801003280721718
493.9635614091388,0.00008296079000435008,0.00007797957310293371,0.00008803293588350669
507.444578254611,0.00008298235041236393,0.00007799795984468438,0.00008805821678054903
522.446169475861,0.00008300681334996499,0.00007801876497589828,0.00008808695992801319
539.9073994677235,0.000083036082324681,0.0000780435860350245,0.00008812142430543854
557.4495492867494,0.00008306610323623997,0.00007806898036592597,0.00008815684137810887
572.4508712544684,0.00008309249752930424,0.00007809125706692528,0.00008818803243829106
589.9152481501051,0.00008312408295649063,0.00007811786244467717,0.00008822541378540605
607.4537019394976,0.0000831564768682943,0.00007814510079557164,0.00008826380325745052
622.4548176373928,0.00008318494888632046,0.00007816900367819889,0.00008829758561371382
637.4558808262733,0.00008321406674024196,0.00007819341746124143,0.0000883321682823035
652.4568951279464,0.00008324383950439253,0.00007821835120015703,0.00008836756077156468
667.4578638386097,0.00008327427568982652,0.0000782438132637469,0.00008840377214579849
681.4690014960329,0.0000833032814072699,0.00007826805576467218,0.00008843830725912111
693.9740629158989,0.00008332968176186394,0.00007829010276031554,0.00008846976071826087
707.4602462329598,0.00008335874211801454,0.00007831435264364785,0.00008850440448231596
723.4500673854416,0.00008339390542363168,0.0000783436722318993,0.00008854635042145517
740.9453421137082,0.00008343327107133427,0.00007837646850039166,0.00008859334133922752
757.4628703771558,0.00008347125005745212,0.00007840808494901863,0.00008863870627191399
772.463591375024,0.00008350653686900933,0.00007843743966339388,0.00008868088035663632
789.9367063252599,0.00008354863827690473,0.00007847243924182097,0.00008873122875036772
809.9382692526635,0.00008359793948707457,0.00007851339474608657,0.00008879022396381808
829.9397568498572,0.0000836485474219603,0.00007855540461956879,0.00008885082241376379
849.9411744350311,0.00008370047653636544,0.00007859848081835666,0.00008891304216445049
869.9425268372618,0.00008375374124301,0.00007864263507838014,0.00008897690144932057
889.9438184514795,0.00008380835597793229,0.0000786878789864022,0.00008904241873306915
909.9450532861861,0.00008386433525725567,0.00007873422404105166,0.00008910961276620497
929.9462350050136,0.00008392169372673712,0.00007878168170566829,0.0000891785026330482
949.9473669630333,0.00008398044620531417,0.00007883026345426748,0.00008924910779459465
969.9484522385712,0.00008404060772358851,0.00007887998081178704,0.00008932144812673131
989.9494936611666,0.00008410219355810183,0.00007893084538947258,0.0000893955439548054
1009.9504938362078,0.00008416521926197966,0.00007898286891623918,0.00008947141608484041
1029.9514551666987,0.00008422970069257952,0.00007903606326658049,0.00008954908583208236
1049.952379872535,0.0000842956540364662,0.00007909044048548094,0.00008962857504706304
1069.9532700076204,0.00008436309583221196,0.00007914601281090799,0.00008970990613967999
1089.954127475097,0.00008443204299113814,0.00007920279269407007,0.00008979310210136175
1109.9549540409287,0.00008450251281656017,0.00007926079281791543,0.00008987818652568111
1134.9008767288885,0.00008459284978348031,0.00007933509374916387,0.00008998733589617482
1164.903429473877,0.00008470438510380806,0.00007942675769985991,0.00009012220931909685
1189.9579824514813,0.00008479997951959777,0.00007950525839300924,0.00009023790283074808
1209.9586769803338,0.00008487833711078655,0.00007956955917832572,0.00009033280581499228
1234.908903522847,0.00008497867310446884,0.00007965183666926493,0.00009045442001550898
1264.9110640673518,0.0000851024042151668,0.00007975321446516165,0.00009060452265067212
1289.9612397277679,0.000085208330981746,0.00007983993166724237,0.0000907331406909254
1309.9618315050252,0.00008529507652780486,0.00007991089322428519,0.00009083855200272165
1334.9157276772194,0.00008540605472888397,0.00008000160926949809,0.00009097351917435818
1364.917579929279,0.00008554277872217854,0.00008011327217690163,0.00009113995306424055
1389.9640283115243,0.00008565972365697644,0.00008020869647456823,0.00009128244476351829
1409.9645385611655,0.00008575542124193846,0.00008028672174914408,0.00009139914557430231
1434.9216006458332,0.00008587776641538556,0.00008038639347609922,0.00009154846987839785
1464.923206178399,0.0000860283804311351,0.00008050898092718323,0.0000917324784232987
1489.966442575134,0.00008615711434666698,0.00008061366125152535,0.00009188991224615392
1524.7950681976906,0.00008634311166167799,0.00008076472400873904,0.00009211766427666136
1574.8015748023622,0.00008661898209985069,0.00008098845112736835,0.00009245598704843613
1624.807680927192,0.00008690794899033778,0.0000812223644151859,0.00009281106069861275
1674.8134224444227,0.00008721049891381608,0.00008146681061224756,0.00009318355557623518
1724.818831066034,0.00008752714113528711,0.00008172215330628675,0.00009357417098257686
1774.823934929885,0.00008785840716169936,0.00008198877292147414,0.00009398363378735457
1824.8287590894658,0.00008820485004967088,0.00008226706657464059,0.00009441269657602317
1874.8333259252674,0.00008856704343492222,0.00008255744778567367,0.00009486213527160113
1924.8376554920158,0.00008894558025144528,0.00008286034602680582,0.00009533274616829673
1974.84176581315,0.00008934107110542051,0.00008317620609381483,0.00009582534230842572
2024.8456731316587,0.00008975414226512086,0.00008350548727999331,0.0000963407491276467
2074.8493921246427,0.0000901854332246953,0.00008384866233213995,0.00009687979928740089
2124.8529360875777,0.00009063559379587017,0.00008420621616550733,0.000097443326606859
2174.8563170931548,0.00009110528067800771,0.00008457864431288115,0.0000980321590008163
2224.859546128699,0.00009159515345314682,0.00008496645108061008,0.0000986471103241914
2274.862633215465,0.00009210586994892445,0.00008537014738246884,0.00009928897101866865
2324.865587512534,0.00009263808090892599,0.00008579024821994696,0.00009995849745344642
2374.8684174075834,0.00009319242390668227,0.0000862272697753949,0.0001006563998495264
2424.8711305964284,0.00009376951643699189,0.00008668172608251267,0.00010138332867700402
2474.8737341529163,0.00009436994811619324,0.00008715412523646699,0.00010213985941770826
2524.8762345905193,0.00009499427192213454,0.00008764496510436009,0.00010292647559180621
2574.8786379167464,0.00009564299440496006,0.00008815472849517625,0.00010374354995849355
2649.528259898354,0.00009666596389746602,0.00008895836321898157,0.00010503060409110563
2724.8853186877427,0.00009773968624442799,0.00008980204394334621,0.00010637914007809171
2774.887385102322,0.00009848973468915416,0.00009039182549720004,0.00010731879417524658
2824.889378365107,0.00009926559552034493,0.00009100250655912381,0.00010828831620371579
2874.89130229301,0.00010006722587975064,0.0000916343426083898,0.0001092869119258223
2924.893160441933,0.0001008944344560516,0.00009228752164247373,0.0001103134917179812
2974.8949561287036,0.00010174686183481915,0.00009296215358849245,0.00011136663780994619
3024.896692450835,0.0001026239596803603,0.0000936582588676157,0.00011246467701388343
3074.89837230436,0.00010352496887462188,0.00009437575611276759,0.0001135855939632772
3124.899998399949,0.00010444889679200151,0.00009511444905535376,0.00011472588094393557
3174.9015732775088,0.0001053944939505239,0.00009587401261623623,0.00011588246579743782
3249.615361854384,0.00010685225112268187,0.00009705384847751356,0.00011764078273695733
3349.6268448888454,0.00010885136691164398,0.00009867195122181302,0.00012000229575769158
3449.637662132068,0.00011089888057508104,0.00010034617972605502,0.00012234743821905157
3549.64786985977,0.00011296860684062204,0.00010208014815580709,0.00012462615978349115
3649.6575181789317,0.00011502790590266944,0.00010385848641321442,0.0001267801301375711
3798.6839826445157,0.0001179948341223747,0.0001065629311203552,0.00012959614593101743
3949.6835316263,0.00012072068143440429,0.00010923818976216776,0.00013182137513785607
4049.6913462633174,0.00012228858534111948,0.00011094855927773055,0.00013279550810079275
4149.698784249285,0.00012359946119699117,0.0001125571923426038,0.00013331019741378495
4259.577443831724,0.00012467204391984385,0.00011415578590274691,0.0001332789881257864
4384.518217546826,0.0001253501775160543,0.00011568798089469929,0.00013245398032643102
4514.532090925924,0.0001253663361739356,0.00011687415749219635,0.0001310122892815594
4664.225552007536,0.00012441467870735078,0.00011759344926905125,0.00012825953454180669
4814.561246884289,0.0001224807204520821,0.00011756809244651627,0.00012446818088286807
4939.635614091388,0.0001201094183439966,0.00011682046824495714,0.00012131342142090487
5074.4457825461095,0.00011685756549424057,0.000113672444076303,0.0001180291707315264
5224.461694758609,0.00011258066918013056,0.00010795820183409597,0.00011473909941862824
5399.0739946772355,0.00010692384832006088,0.0001010100006601177,0.00011067324803110357
5574.495492867493,0.00010086752334480622,0.00009410559727435758,0.00010585469725485994
5724.508712544684,0.00009554027998778775,0.00008838172937839272,0.00010133216778955456
5899.152481501051,0.00008937535434901175,0.00008205752529823602,0.00009596668024352135
6074.537019394976,0.0000834026019503719,0.00007615190834912642,0.00009045476687007253
6224.548176373929,0.00007853029125633925,0.0000714725113516509,0.00008574029739192344
6374.558808262734,0.00007392501256088603,0.00006713867967695323,0.00008112891390979848
6524.568951279463,0.00006960661763169358,0.00006313946608687544,0.00007668243835597836
6674.578638386097,0.00006558045756939307,0.00005945716427199043,0.00007244217374971391
6814.690014960328,0.00006207939460974631,0.00005628461307211698,0.00006868990926624299
6939.740629158989,0.000059159194227112957,0.000053655960431371654,0.00006551860050884632
7074.602462329597,0.000056216617804531334,0.00005102041076972212,0.00006228901174628968
7234.500673854416,0.00005298746297018221,0.00004813976877400467,0.00005871222660529429
7409.453421137081,0.00004975234568216266,0.000045262706254262824,0.00005510018793220392
7574.628703771558,0.00004695784660588211,0.000042782101545153747,0.000051961772454949376
7724.6359137502395,0.000044620343202448506,0.000040701396832872195,0.00004932615306937896
7899.3670632526,0.0000421157912153755,0.00003847036407637773,0.00004649457654335437
8099.382692526635,0.00003950463970930093,0.000036143237018307165,0.0000435374411274095
8299.39756849857,0.000037137420106995355,0.000034031224678996965,0.000040854593609110026
8499.411744350311,0.00003498563840947816,0.00003210856154546547,0.00003842096595076287
8699.425268372619,0.00003302434012957032,0.000030353017652256053,0.00003621014501452457
8899.438184514796,0.000031231761432410585,0.000028745410701893186,0.000034192074826946384
9099.45053286186,0.000029588959152254737,0.0000272691683302643,0.00003234555349100448
9299.462350050137,0.0000280794531887111,0.000025909945290303616,0.000030651898278782915
9499.473669630333,0.000026688897759670362,0.000024655293928717696,0.000029094694950688128
9699.484522385714,0.000025404788083211058,0.00002349438331649266,0.000027659541752469424
9899.494936611665,0.000024216203531428788,0.00002241776126695844,0.000026333805077979095
10099.504938362077,0.00002311358540159985,0.00002141715335473845,0.000025106395213947946
10299.514551666985,0.000022088546098419556,0.000020485293427614784,0.00002396756547448261
10499.52379872535,0.000021133706050018502,0.000019615780695718807,0.000022908735105129686
10699.532700076204,0.000020242554689275357,0.000018802959133422777,0.000021922334756128956
10899.54127475097,0.000019409332083345682,0.0000180418155592257,0.00002100167255926045
11099.549540409287,0.000018628928151210977,0.00001732789333094638,0.000020140818557248154
11349.008767288886,0.000017723073419579084,0.000016497906037506812,0.00001914342498211476
11649.03429473877,0.000016721751831829254,0.000015578915503774335,0.000018043100705150765
11899.579824514814,0.000015951571458274378,0.000014870953680900162,0.000017198356566264904
12099.58676980334,0.000015375997463237028,0.000014341204023570986,0.000016568026100916775
12349.08903522847,0.000014702434252064974,0.000013720541124945323,0.000015831428821238892
12649.110640673518,0.00001395133109141071,0.000013027567667151572,0.00001501127593284232
12899.612397277679,0.000013368774070960636,0.000012489469510036412,0.000014376068316813465
13099.618315050251,0.000012930411644532405,0.000012084177570365807,0.000013898641797750776
13349.157276772194,0.000012414107178578126,0.000011606405911699174,0.000013336930798588751
13649.17579929279,0.000011834343510719434,0.000011069410934275383,0.000012706901881837915
13899.640283115243,0.000011381675721574837,0.000010649768508833559,0.000012215518442840923
14099.645385611653,0.00001103916646315558,0.000010332020499827727,0.000011844042865136158
14349.216006458331,0.000010633653857401355,0.00000995557418674515,0.000011404595443875272
14649.23206178399,0.000010175715239041686,0.000009530157734108834,0.000010908769330249535
14899.66442575134,0.000009816217809839992,0.000009195967462818729,0.000010519850725479678
15247.950681976907,0.000009348026876885736,0.000008760403089340173,0.000010013819918479598
15748.015748023621,0.000008733145902183426,0.000008187894896298693,0.000009349925284965113
16248.07680927192,0.000008178108171731736,0.000007670615117676177,0.000008751345619736941
16748.134224444228,0.000007675250039957923,0.000007201569458010016,0.000008209602926209985
17248.18831066034,0.000007218118446868585,0.000006774854090974279,0.000007717579484448412
17748.23934929885,0.0000068012446644948235,0.000006385454785807404,0.000007269259319779569
18248.28759089466,0.000006419966606143218,0.0000060290885027034765,0.000006859526105054462
18748.333259252675,0.000006070287997314158,0.000005702077375583192,0.000006484003682347423
19248.376554920156,0.000005748765815070831,0.000005401247641483391,0.000006138929109978585
19748.4176581315,0.000005452419614004688,0.000005123847964065272,0.000005821050775849706
20248.456731316586,0.000005178657949265172,0.000004867482965042235,0.000005527546006549956
20748.493921246427,0.000004925218266574397,0.000004630058777001115,0.000005255953970192174
21248.52936087578,0.000004690117482459407,0.000004409738170198138,0.000005004120673257684
21748.563170931546,0.000004471611112232157,0.000004204903357752239,0.000004770153593261287
22248.59546128699,0.00000426815927917998,0.000004014124999500421,0.000004552384042927285
22748.62633215465,0.000004078398298757568,0.000003836136240842208,0.000004349335779015262
23248.65587512534,0.000003901116806630206,0.0000036698108651010027,0.000004159698686276204
23748.684174075835,0.0000037352356110643008,0.000003514144824953233,0.000003982306610208329
24248.711305964283,0.0000035797906142173436,0.0000033682405639218527,0.000003816118600068762
24748.737341529162,0.000003433918274951015,0.00000323129365284711,0.000003660202969665288
25248.762345905194,0.0000032968431864316485,0.0000031025813560044667,0.000003513723697834484
25748.786379167464,0.0000031678674213579782,0.0000029814528127252234,0.000003375928780685467
26495.28259898354,0.0000029890585677789006,0.000002813486940680907,0.0000031849428009231368
27248.853186877426,0.000002823534957335629,0.0000026579694068461114,0.000003008189534737634
27748.873851023214,0.0000027212307662107815,0.000002561831538667532,0.000002898969344660572
28248.89378365107,0.0000026244174220270133,0.000002470841781265825,0.0000027956272375310613
28748.9130229301,0.0000025327069659597392,0.000002384637434323634,0.0000026977464606441974
29248.931604419333,0.000002445745277718875,0.0000023028873234896455,0.000002604946763471758
29748.949561287034,0.000002363208576919898,0.00000222528855410605,0.0000025168806050003844
30248.966924508346,0.0000022848003414377585,0.0000021515636500298765,0.0000024332298156694674
30748.983723043595,0.0000022102485866089746,0.0000020814580259838597,0.000002353702652317151
31248.99998399949,0.0000021393034575528264,0.0000020147377495425826,0.000002278031193831579
31749.015732775086,0.0000020717350939049236,0.0000019511875552857613,0.000002205969032949341
32496.15361854384,0.000001976614873880899,0.000001861714181827638,0.0000021045358475098376
33496.268448888455,0.0000018592423625580677,0.00000175129550909965,0.0000019793924793465762
34496.37662132068,0.0000017520616497343768,0.000001650450565277179,0.0000018651349144446186
35496.4786985977,0.000001653922411497636,0.0000015581007468590825,0.0000017605318340909722
36496.57518178932,0.0000015638326356308692,0.0000014733155752305187,0.0000016645218111317993
37986.83982644516,0.0000014427048290182421,0.0000013593041062602675,0.0000015354553990184882
39496.835316263,0.0000013338105886540442,0.000001256794486776357,0.0000014194417950424251
40496.91346263317,0.0000012683635290282394,0.0000011951775377448828,0.0000013497254877292727
41496.987842492854,0.000001207632705966768,0.0000011379963803518947,0.0000012850390279319025
42595.77443831723,0.0000011458187533494693,0.0000010797909600889487,0.0000012192048492791698
43845.18217546827,0.000001081144116165769,0.0000010188871801736546,0.000001150330202125132
45145.320909259244,0.0000010195048609692168,9.608373539002932e-7,0.0000010846940207357386
46642.255520075356,9.548660029529763e-7,8.999578131136868e-7,0.000001015870142546143
48145.61246884289,8.959602552124771e-7,8.444739638941854e-7,9.531559013832249e-7
