Frequency,Nominal,Min,Max
245,-88.93335540012788,-88.99728236114548,-88.8682609684574
250,-88.91140775286367,-88.97666954871565,-88.84495021806872
255,-88.88944921146569,-88.95604767845217,-88.8216264663084
260,-88.86747955584852,-88.93541656757805,-88.79828945019312
270,-88.82350602095656,-88.89412589240587,-88.7515745720805
275,-88.80150170084471,-88.87346596206396,-88.72819618322212
280,-88.77948538483437,-88.8527960590199,-88.70480347627975
285,-88.75745685215826,-88.83211599999531,-88.68139618735475
290,-88.73541588190494,-88.81142560160583,-88.65797405235483
295,-88.71336225301616,-88.79072468035913,-88.63453680699067
300,-88.69129574428422,-88.77001305265301,-88.61108418677233
305,-88.66921613434944,-88.74929053477354,-88.58761592700573
310,-88.64712320169745,-88.72855694289305,-88.56413176278922
315,-88.62501672465665,-88.70781209306827,-88.54063142900988
320,-88.60289648139552,-88.6870558012384,-88.51711466034017
330,-88.55861380807117,-88.64550815472087,-88.47003075592488
340,-88.51427340377495,-88.60391252842996,-88.42287792249498
350,-88.46987348783118,-88.56226744545118,-88.3756540293409
360,-88.42541227675365,-88.52057142680431,-88.32835694197848
370,-88.38088798416132,-88.47882299138146,-88.28098452203545
390,-88.29164299392642,-88.39516293476618,-88.18600511079411
400,-88.24691870828586,-88.35324834016147,-88.1383938222847
410,-88.20212416496479,-88.31127538183183,-88.09069860654363
420,-88.15725756183677,-88.26924256709948,-88.04291730404572
432,-88.10331997670602,-88.21872207357764,-87.98546305914775
445,-88.04476393495652,-88.16388884007176,-87.92307320476469
458,-87.98607540593905,-88.10894558581172,-87.86052502752527
475,-87.90912231246422,-88.03692520598042,-87.77848439147202
488,-87.8501127757,-87.98171542619957,-87.71555253507623
500,-87.79551316557921,-87.93064524309818,-87.65730705479494
515,-87.72708418418276,-87.86665854973099,-87.58428562853278
530,-87.65844999257516,-87.80250154741762,-87.51101881566682
550,-87.56660774045261,-87.71668504829523,-87.41293506133414
565,-87.49747043659747,-87.65211060039726,-87.33906648153462
580,-87.42810704867128,-87.58734861042743,-87.26492741383011
600,-87.33525992995948,-87.50069855540605,-87.16564142577135
615,-87.26534441861496,-87.43547868507143,-87.09084161037286
630,-87.19518168209558,-87.37005384347452,-87.01574584614241
645,-87.12476532222429,-87.3044187609017,-86.94034641962189
660,-87.05408891384033,-87.23856814785519,-86.8646355810178
675,-86.98314600411533,-87.1724966945547,-86.78860554327413
688,-86.92144157023667,-87.11505201348243,-86.72244859982685
700,-86.8642979796987,-87.06187236190779,-86.6611582108321
715,-86.79261263475,-86.9951858826933,-86.58423861190828
732,-86.7110178171643,-86.91931685545941,-86.49664184178397
750,-86.6242060628793,-86.8386394989634,-86.40339209448881
765,-86.55152699944131,-86.77113029966264,-86.32528112922198
780,-86.478535432131,-86.70336248147807,-86.24679533336204
800,-86.3807156416342,-86.61259360170729,-86.14155049629969
820,-86.28231240159892,-86.52134210900869,-86.0356054825246
840,-86.18330962809509,-86.42959483986058,-85.92894077110063
860,-86.08369112386903,-86.3373385478175,-85.82153668818745
880,-85.98344057530639,-86.24455990130518,-85.71337340291142
900,-85.8825415493786,-86.15124548140432,-85.60443092321346
920,-85.78097749057305,-86.05738177962277,-85.49468909167398
940,-85.6787317178067,-85.96295519565653,-85.38412758131538
960,-85.57578742132372,-85.8679520351391,-85.27272589138259
980,-85.47212765957715,-85.77235850737961,-85.1604633431019
1000,-85.36773535609484,-85.67616072308968,-85.04731907541908
1020,-85.26259329632985,-85.57934469209917,-84.93327204071721
1040,-85.15668412449605,-85.48189632106073,-84.81830100051532
1060,-85.0499903403889,-85.38380141114361,-84.70238452114829
1080,-84.94249429619215,-85.2850456557168,-84.58550096942977
1100,-84.83417819327101,-85.18561463802165,-84.4676285082987
1120,-84.72502407895232,-85.0854938288344,-84.34874509245103
1150,-84.55968197680016,-84.93398719020269,-84.16847568014627
1180,-84.39235176234855,-84.78084562374478,-83.98580544782719
1200,-84.27966288158025,-84.67781802469439,-83.86265344161932
1220,-84.16604380196492,-84.57402621857406,-83.73837697679691
1250,-83.9938295689187,-84.41687221859753,-83.54980269506996
1280,-83.8194150309067,-84.25791237370929,-83.35856575950491
1300,-83.70188391924809,-84.15090990019705,-83.2295551759343
1320,-83.58332608135942,-84.04306563659715,-83.09930076299634
1350,-83.40352071096906,-83.87968601441094,-82.901533021233
1380,-83.22129261584175,-83.71432216581161,-82.70082697051518
1400,-83.098427298668,-83.60295008694479,-82.56534833958702
1420,-82.97443397668906,-83.49065516658588,-82.42850009077756
1450,-82.78628329176988,-83.32044598766404,-82.22060278485202
1480,-82.59547630979039,-83.1480660563703,-82.00947646172474
1500,-82.46676023489525,-83.03191169380236,-81.86688713588153
1550,-82.13952129142704,-82.73707905374278,-81.50378088538662
1600,-81.8042209320586,-82.43567355224248,-81.13085184137802
1650,-81.46050463039347,-82.12741407812052,-80.74765574526228
1700,-81.10800856800306,-81.81201269559563,-80.35373591131925
1750,-80.74635935172302,-81.48917442064676,-79.94862289302573
1800,-80.37517374638892,-81.15859700397716,-79.53183418251331
1850,-79.99405842667751,-80.81997072239294,-79.10287395036572
1900,-79.6026097522383,-80.472978180663,-78.66123283397873
1950,-79.20041357087308,-80.11729412620994,-78.2063877838311
2000,-78.7870450551544,-79.75258527929462,-77.7378019782533
2050,-78.36206857856855,-79.3785101816996,-77.254924818636
2100,-77.92503763803134,-78.99471906729566,-76.75719201849613
2150,-77.47549483045513,-78.60085375828797,-76.24402580141441
2200,-77.01297189194615,-78.19654759138902,-75.71483522457055
2250,-76.53698980918456,-77.78142537865561,-75.1690166464255
2300,-76.04705901358057,-77.35510340825692,-74.60595435901807
2350,-75.54267966991002,-76.91718949101154,-74.02502140733876
2400,-75.02334207230284,-76.46728305914313,-73.42558062028448
2450,-74.48852716167983,-76.00497532435594,-72.80698587974794
2500,-73.9377071799947,-75.52984950302088,-72.16858365639865
2550,-73.37034647791974,-75.04148111698646,-71.50971484260347
2600,-72.78590249389198,-74.53943837928135,-70.82971691462821
2700,-71.56356710080118,-73.49256914644681,-69.40368208806413
2750,-70.92456760916536,-72.94684739939943,-68.656327807956
2800,-70.2662721501843,-72.38566233411606,-67.8852168261877
2850,-69.58812568719553,-71.80855512293729,-67.08971587922596
2900,-68.88957689031982,-71.21506434299432,-66.26921008224777
2950,-68.17008090470392,-70.60472728009995,-65.42310833705838
3000,-67.42910246438501,-69.97708141832997,-64.55084931760996
3050,-66.66611937262034,-69.33166613030936,-63.651908046158304
3100,-65.8806263673223,-68.66802458324544,-62.72580306306287
3150,-65.07213938706775,-67.98570587549625,-61.77210418066068
3200,-64.2402002488686,-67.28426741785874,-60.790440796325534
3300,-62.50429314582101,-65.82231856284363,-58.74208946330207
3400,-60.669961090235624,-64.27891065347912,-56.57932201667182
3500,-58.735042220009184,-62.651106980361014,-54.302267971534974
3600,-56.69837389465651,-60.93642644454431,-51.912929351873565
3700,-54.56002485417911,-59.132986246600005,-49.415478106038535
3900,-49.98612090897426,-55.256248124542175,-44.12517899297331
4000,-47.55890541851123,-53.18365049066534,-41.353297299287334
4100,-45.047017226704575,-51.024037218136435,-38.51516784963785
4200,-42.45966693223435,-48.78099984903803,-35.627332744429275
4320,-39.271203581544825,-45.98657597780356,-32.12221047728066
4450,-35.739478063835676,-42.84608797444477,-28.31327205925387
4580,-32.15957042347651,-39.607053681753825,-24.534770298683164
4750,-27.465411339776022,-35.26280035356966,-19.708843798791502
4880,-23.912562143357523,-31.892922758915105,-16.153310934477876
5000,-20.694653690283875,-28.774107719083705,-13.003799912147356
5150,-16.793560769878262,-24.902126395041456,-9.272992946933684
5300,-13.064070359395874,-21.101776720715808,-5.791773176225618
5500,-8.40839128239253,-16.215748781544846,-1.5557395043128137
5650,-5.177548409135271,-12.729825741380866,1.3174231293903533
5800,-2.179151490915341,-9.424123192871646,3.9388376912336165
6000,1.4583943515623379,-5.322911948098669,7.0651081589353195
6150,3.924892506973037,-2.4861525842679737,9.1535961028596
6300,6.178894222603943,0.14487387664593615,11.041332123240073
6450,8.233405176961066,2.574542470629479,12.745376140729089
6600,10.102505795517036,4.810548153305059,14.282219836419412
6750,11.80057531812291,6.862806196266359,15.667427109127207
6880,13.14483185920229,8.50146198316438,16.756477459395494
7000,14.288758968169027,9.905715933040556,17.68141996733479
7150,15.598149848518533,11.524342128343733,18.772999023800242
7320,16.93449693221268,13.189115410744094,19.87968625190484
7500,18.195713133807697,14.772929417756517,20.916589142196326
7650,19.13821169459055,15.965232239264042,21.686018819663364
7800,19.991723610122218,17.05017367385038,22.37818168909102
8000,21.005307649788136,18.29954093384517,23.193442650713248
8200,21.89230828160506,19.40246056620794,23.89960974409417
8400,22.667710775670987,20.37561997692372,24.509911109601642
8600,23.344562948671136,21.233719494810654,25.035787729621433
8800,23.934228358814924,21.989678369904098,25.487152895296088
9000,24.446613497431187,22.514448233378772,25.872615170376204
9200,24.890367684552864,22.955128935184504,26.199668469846717
9400,25.273056746886564,23.335302889679596,26.47485334598927
9600,25.601312707689786,23.661567470584053,26.703893509083187
9800,25.880962161420555,23.939720997058274,26.891811284445286
10000,26.11713605605335,24.17487075361646,27.043025279272737
10200,26.314363451559615,24.37152545525591,27.161433086454263
10400,26.476651574958055,24.533674357532618,27.250481430762076
10600,26.607554213440356,24.6648549631261,27.31322578448553
10800,26.710230211433288,24.768211023775823,27.3523811504455
11000,26.787493582127293,24.846542298261117,27.37036542953197
11200,26.84185651620186,24.902347312050964,27.369336553306425
11500,26.885314218578294,24.948640817903197,27.367649590635562
11800,26.888879097051383,24.95581013510495,27.366890918396162
12000,26.871918459236795,24.941658462630787,27.359101114331406
12200,26.841222307419297,24.91408160974082,27.37106426738276
12500,26.772284833507015,24.850378228049863,27.36086597990456
12800,26.679337987101352,24.763295543776046,27.32096549730678
13000,26.60573506935136,24.693932381003204,27.2798630444821
13200,26.523874809116805,24.616562572939497,27.228398217355313
13500,26.38735440326569,24.48722301614925,27.133835258558477
13800,26.23649569730027,24.34404602603685,27.02095353486932
14000,26.12901487391541,24.241946557936615,26.936770101584408
14200,26.016666926354095,24.135175853445954,26.846223271601758
14500,25.84012325404682,23.967343004593623,26.69977932325285
14800,25.655307734469623,23.791622629432187,26.54219410736601
15000,25.528175160777327,23.670751104728076,26.431748507620757
15500,25.19917076589861,23.35802478057231,26.139822802537353
16000,24.857930314101374,23.03384900828569,25.82977447001042
16500,24.5083361611375,22.701981914974798,25.506284089643312
17000,24.15352026177689,22.365442083584004,25.17315789863911
17500,23.796010697726633,22.026654716164135,24.83349735051941
18000,23.437847123277347,21.687566586551878,24.489832536564958
18500,23.080672392317908,21.349737090350924,24.14422799905137
19000,22.72580576697552,21.01441082777289,23.79836725301073
19500,22.374301764326333,20.68257580304646,23.453620743811253
20000,22.026997717704596,20.355010337370516,23.111100813343892
20500,21.684552407039924,20.032321064696163,22.771706400161847
21000,21.347477575223966,19.714973837739453,22.436159570626927
21500,21.01616374376518,19.403318964384642,22.105035507874895
22000,20.69090143498549,19.09761188595313,21.778787230253297
22500,20.37189867415328,18.798030172926815,21.45776604039708
23000,20.059295464824938,18.504687532098195,21.142238498387336
23500,19.75317579091951,18.21764537827941,20.83240055176169
24000,19.45357758987339,17.936922413775147,20.528389329915413
24500,19.160501055382415,17.66250257246375,20.230293012203287
25000,18.873915560342063,17.394341617116222,19.938159101499796
25500,18.593765436583894,17.13237262438577,19.652001373377328
26000,18.319974804811363,16.87651054862992,19.37180572187309
27000,17.79109101694359,16.382698512382344,18.82913358779952
27500,17.53577820184681,16.144518965698143,18.566530062122975
28000,17.286390749474634,15.911991985557933,18.30964098684791
28500,17.042800610103665,15.684987657166342,18.058372993097084
29000,16.804875750236263,15.463373054983453,17.81262497047693
29500,16.5724815247626,15.247013491132613,17.572289845942578
30000,16.34548181728487,15.035773545372491,17.337256083807553
30500,16.12373998489925,14.829517911587109,17.107408949133525
31000,15.907119637945595,14.628112090070646,16.882631570113418
31500,15.695485280403021,14.431422950174804,16.66280582953885
32000,15.488702832591086,14.239319183965828,16.44781311082107
33000,15.0891668849685,13.86835374975036,16.031853403255905
34000,14.70748157392661,13.514213708691852,15.633814654783336
35000,14.342658774600919,13.175942323291778,15.252781211735561
36000,13.9937569700072,12.852631571359366,14.887867931097219
37000,13.659883439185677,12.543423452098814,14.538225466224553
39000,13.033896549883163,11.964131555887054,13.881551316114718
40000,12.740241554318809,11.692576366889652,13.573019883399493
41000,12.45852843920761,11.432177185366456,13.276759604760473
42000,12.188099384730867,11.1823096023426,12.992120169178968
43200,11.877614190200891,10.895550458213139,12.665032379620383
44500,11.55744390736606,10.599975610641907,12.327430955401214
45800,11.252979610961233,10.319018108442194,12.006108557215823
47500,10.876768365466722,9.972006100243503,11.60870168231945
48800,10.60461947277559,9.721081456062636,11.320978110564894
50000,10.364514391676666,9.49977000126246,11.066969669706538
51500,10.07838795215293,9.23612033917584,10.764082684895872
53000,9.80676125548942,8.985909976640848,10.476357897285101
55000,9.465363708421972,8.671533850726288,10.114479230219358
56500,9.22368414950387,8.44905015439889,9.858140289184457
58000,8.993381270461127,8.237089009835888,9.613748977695892
60000,8.702692096049105,7.96961677166534,9.305117519963142
61500,8.496064285395866,7.7795347563482204,9.085631517119408
63000,8.298498703766453,7.597820969213813,8.875693469693926
64500,8.109421141387918,7.423941902451484,8.674705731727547
66000,7.928303487019666,7.257407227935669,8.482117827777468
67500,7.754659355105011,7.097765656987985,8.297422085364724
68800,7.609865405559394,6.964663042729662,8.143373048886286
70000,7.4806576010060075,6.845899260702606,8.00587683911921
71500,7.324841669352831,6.702691510648315,7.840029620634905
73200,7.155470985056292,6.547041562621053,7.659711741659286
75000,6.983979578605834,6.389458358515227,7.477091813023162
76500,6.846855084622558,6.2634654466234565,7.331038092953051
78000,6.714686059520319,6.142034018946583,7.19023750249417
80000,6.545715798324096,5.9868020910332,7.010197862038822
82000,6.384512184021068,5.8387157444949604,6.838399164640809
84000,6.2305501511982975,5.697290170770574,6.674288027634637
86000,6.083350229626366,5.562082851154886,6.517358702584942
88000,5.942473778563601,5.43268911186105,6.367148152132615
90000,5.807518795977655,5.308738218991239,6.223231712243279
92000,5.678116225022286,5.189889939864579,6.0852192622566355
94000,5.55392669157718,5.075831508126132,5.952751836305474
96000,5.434637616311735,4.966274939278293,5.825498619142012
98000,5.31996065287509,4.86095465103359,5.703154277440167
100000,5.209629410700267,4.7596253494274015,5.585436584468493
102000,5.103397426729262,4.662060147153998,5.472084301826685
104000,5.001036355312475,4.568048885268557,5.3628552868855435
106000,4.90233434973125,4.477396633366212,5.257524798781792
108000,4.807094612370557,4.3899223467251085,5.155883979428535
110000,4.715134093620951,4.305457661777949,5.057738489082252
112000,4.62628232220007,4.22384581373299,4.962907278657387
115000,4.498488786922384,4.106460116051486,4.826508429692632
118000,4.376842044887164,3.994713824224883,4.6966657015084365
120000,4.298937337926709,3.9231454888761883,4.613510385008025
122000,4.223444210362074,3.8537891846087224,4.532928263788559
125000,4.114479043994321,3.753675192815993,4.41661683307367
128000,4.010330021913723,3.6579779847552665,4.305446089996942
130000,3.9434119405898995,3.596485715372484,4.234016769010449
132000,3.878401122378291,3.5367422560696493,4.164623868061951
135000,3.784279357136702,3.4502392949123566,4.064159323428106
138000,3.693999420925343,3.367258454688185,3.967797893576012
140000,3.6358274870704332,3.313784788352858,3.9057089426477254
142000,3.579189305085577,3.2617170456358915,3.845258460768682
145000,3.4969714263876166,3.1861263680419527,3.7575094736665684
148000,3.4178661371822394,3.1133885173465656,3.6730863200979194
150000,3.3667677821749744,3.066398287878208,3.618555167926373
155000,3.244392421460027,2.9538443946664232,3.4879671055020096
160000,3.1291222738943074,2.8478013793981938,3.364973899055915
165000,3.0203203554192504,2.7476849984401768,3.248895801866676
170000,2.917423369266346,2.6529786699596434,3.139131542266531
175000,2.8199313830218147,2.5632239827530996,3.0351473560879985
180000,2.7273991885121833,2.478012754596954,2.936467802146686
185000,2.6394290338844377,2.3969803536240817,2.8426680326467983
190000,2.555664480903281,2.319800055043289,2.753367257398002
195000,2.4757851898755323,2.2461782511270005,2.6682231927791897
200000,2.3995024731927312,2.1758503679997325,2.586927327079053
205000,2.326555488809489,2.1085773707401825,2.5092008658674656
210000,2.256707968965932,2.0441427604292124,2.434791246400298
215000,2.189745398545597,1.9823499843677665,2.3634691302417465
220000,2.125472572726075,1.923020194754159,2.295025799444617
225000,2.0637114758573474,1.8659903024180307,2.2292708946288267
230000,2.0042994334241437,1.8111112813452708,2.166030443812355
235000,1.9470874970076948,1.7582466871452527,2.1051451393922345
240000,1.891939028737114,1.7072713586624886,2.0464688276466627
245000,1.8387284571078288,1.6580702768919318,1.9898671808480228
250000,1.7873401804794635,1.6105375594354305,1.9352165267831267
255000,1.7376675982294942,1.5645755721061672,1.8824028143699996
260000,1.689612252577829,1.5200941420826675,1.8313206972891842
270000,1.5979956662941743,1.4352454550297877,1.7339685946636099
275000,1.554271775524945,1.3947292471093722,1.6875245527233729
280000,1.5118386757904978,1.3553946448933223,1.6424627697946976
285000,1.4706287219801448,1.317179705354583,1.5987108472145475
290000,1.4305789079865028,1.2800267349843615,1.5562013480505223
295000,1.3916304761267135,1.2438819318502323,1.514871379674804
300000,1.3537285653317497,1.208695063200178,1.4746622177345197
305000,1.3168218936915244,1.1744191745654655,1.4355189668110562
310000,1.2808624715084314,1.1410103268324203,1.39739025366411
315000,1.2458053414956283,1.1084273581982216,1.3602279494710912
320000,1.2116083431736335,1.0766316683080004,1.3239869179172754
330000,1.145638819102355,1.015259371976637,1.2541017377457582
340000,1.0826648874640405,0.9566288424414674,1.1874252772300118
350000,1.0224304334588918,0.9005056097088452,1.1236833061431495
360000,0.9647076908236283,0.846681162659774,1.0626319348580318
370000,0.9092934272103628,0.7949694549933324,1.0040535337351666
390000,0.8046812785378457,0.6972351789229024,0.893556311419529
400000,0.7551730380083134,0.6509285157563562,0.841895116814418
410000,0.7073482709127161,0.6061624694350718,0.7920272801926845
420000,0.6610868450750053,0.5628270778114097,0.7438211492055411
432000,0.607483996579211,0.5125732575327638,0.6880049399419399
